sample4R,,sample4R2,,
Wavelength (nm),%R,Wavelength (nm),%R,
800,18.89240456,800,18.76626015,
798,18.83630562,798,18.79143906,
796,18.83036041,796,18.80468941,
794,18.84567833,794,18.72070694,
792,18.7926445,792,18.7286377,
790,18.8059845,790,18.74259949,
788,18.72574615,788,18.69470596,
786,18.71434021,786,18.68444443,
784,18.73217392,784,18.67916679,
782,18.62574005,782,18.61909103,
780,18.66598129,780,18.64719582,
778,18.6300087,778,18.6308136,
776,18.60054588,776,18.55934334,
774,18.57151222,774,18.5258503,
772,18.64157867,772,18.56308365,
770,18.58095169,770,18.52131081,
768,18.55898285,768,18.51448059,
766,18.53220177,766,18.51638794,
764,18.50441933,764,18.46396446,
762,18.51211166,762,18.50059128,
760,18.47450638,760,18.43420792,
758,18.47867966,758,18.43486977,
756,18.44645882,756,18.3834362,
754,18.43240738,754,18.34699631,
752,18.34989548,752,18.29438591,
750,18.36849213,750,18.31320953,
748,18.36115074,748,18.31433678,
746,18.31737328,746,18.24427032,
744,18.27224541,744,18.24398994,
742,18.31987762,742,18.23467636,
740,18.27330208,740,18.20625877,
738,18.27702904,738,18.20661354,
736,18.15996552,736,18.09112358,
734,18.14343834,734,18.08579254,
732,18.12801933,732,18.05939674,
730,18.11235046,730,18.03431892,
728,18.09640503,728,18.03013229,
726,18.06373596,726,17.9790802,
724,18.04410553,724,18.01238441,
722,17.99931717,722,17.96034241,
720,18.00711823,720,17.92533302,
718,17.98954964,718,19.04016113,
716,18.38968849,716,18.57114601,
714,17.49246407,714,17.42223358,
712,18.18053055,712,17.73072243,
710,17.59464073,710,18.17806435,
708,18.098526,708,18.36641502,
706,17.36861801,706,17.31011963,
704,18.00719643,704,17.7881813,
702,18.15946579,702,18.17066765,
700,17.89153671,700,17.65452385,
698,17.39250183,698,17.36456871,
696,17.74803925,696,17.80023956,
694,18.04449463,694,17.57504654,
692,17.89606667,692,17.53157616,
690,17.54788017,690,17.1356945,
688,17.56883049,688,17.26052094,
686,17.33382607,686,17.53457642,
684,17.32444191,684,16.94258118,
682,17.86541557,682,17.36122322,
680,17.54095459,680,17.73536301,
678,17.31966019,678,17.317276,
676,17.25683594,676,17.10753059,
674,17.32010841,674,17.42306709,
672,17.01220131,672,17.11533928,
670,16.83372879,670,17.20025635,
668,16.77527618,668,17.51471138,
666,17.3762989,666,17.15995598,
664,17.11047363,664,16.63386154,
662,16.61834526,662,16.70768929,
660,16.87160873,660,17.01135826,
658,17.20410919,658,17.08113861,
656,17.12555504,656,16.90625381,
654,17.11436272,654,16.83687592,
652,17.16640091,652,17.15087509,
650,16.79552078,650,17.20577049,
648,16.78658485,648,16.62911034,
646,16.69795799,646,16.76668549,
644,16.39683151,644,16.84841156,
642,16.49915504,642,16.77641678,
640,16.35237694,640,16.69958496,
638,16.48705482,638,16.54510117,
636,16.00682259,636,15.92650414,
634,16.33355904,634,16.03351021,
632,16.62731934,632,16.45194817,
630,16.41117477,630,16.59081078,
628,16.37199974,628,16.3118763,
626,16.66401291,626,17.00142097,
624,16.31645203,624,16.44099617,
622,16.16402054,622,16.07406425,
620,16.28325844,620,16.53029633,
618,16.16697311,618,16.36184883,
616,16.31336403,616,16.46323776,
614,15.91559029,614,16.01072502,
612,15.62316132,612,15.28665257,
610,16.27987099,610,16.45006752,
608,16.34772682,608,16.18292046,
606,15.70744228,606,15.98370647,
604,15.82452774,604,15.99411774,
602,15.53827477,602,16.14785385,
600,15.66559029,600,15.38143158,
598,15.39555359,598,15.74821949,
596,15.85407257,596,16.11449814,
594,15.807271,594,15.55764103,
592,15.82264423,592,15.72267151,
590,16.07944107,590,15.76244259,
588,15.95695019,588,15.62896919,
586,15.66690254,586,15.81339836,
584,15.53633976,584,15.57219887,
582,15.73531437,582,15.58405876,
580,15.5994339,580,15.715909,
578,15.72050476,578,15.37470245,
576,15.56169415,576,15.67266178,
574,15.5547533,574,15.24738693,
572,15.50528526,572,15.43930912,
570,15.36553383,570,15.11419106,
568,15.1470871,568,15.37573624,
566,15.31884861,566,15.37742615,
564,14.98097229,564,15.39862728,
562,15.44605923,562,14.94479179,
560,14.94276714,560,15.1859169,
558,15.39382648,558,15.07539749,
556,14.73217773,556,14.74735928,
554,14.80962658,554,14.83526421,
552,14.80066204,552,15.25781441,
550,14.6180706,550,14.58308983,
548,15.02084923,548,14.57865238,
546,15.07358551,546,14.85385895,
544,15.04788876,544,15.23493385,
542,14.90474033,542,14.95357895,
540,15.03908348,540,15.36765957,
538,14.68771267,538,15.08585835,
536,15.52357674,536,14.9815855,
534,14.42375469,534,15.12352562,
532,15.1290102,532,15.09273338,
530,14.36723137,530,15.03292465,
528,15.25016022,528,14.74480057,
526,14.6564827,526,14.65745831,
524,14.87077141,524,15.38419533,
522,14.90628433,522,14.78653145,
520,14.83457279,520,14.60746574,
518,14.93072033,518,15.0660677,
516,14.49860191,516,14.3631916,
514,14.20659733,514,14.18394852,
512,14.62982559,512,14.72989273,
510,14.7108717,510,14.30526257,
508,15.11905003,508,14.82976341,
506,14.46087646,506,14.99304008,
504,14.59229279,504,14.03385544,
502,14.5006628,502,14.54864407,
500,14.50555801,500,14.77172852,
498,14.7852478,498,14.4128685,
496,15.02184582,496,14.99429321,
494,14.97439289,494,14.75310898,
492,15.05567265,492,15.25060844,
490,14.61607933,490,14.679883,
488,14.11044121,488,14.17056179,
486,15.01595402,486,15.35178852,
484,14.71528244,484,15.14257526,
482,14.55169582,482,15.55745792,
480,14.88051128,480,14.93533134,
478,15.27598095,478,14.91052914,
476,15.27219868,476,15.53479385,
474,14.84051514,474,14.44417191,
472,14.83293629,472,15.38573933,
470,15.03613472,470,15.07186699,
468,14.9419117,468,14.47799969,
466,15.2787466,466,15.01688766,
464,15.01517487,464,14.70150089,
462,15.32738495,462,15.25831032,
460,15.46868706,460,15.25523663,
458,16.03083229,458,15.00534153,
456,15.12485695,456,15.2201767,
454,15.65814304,454,15.49363995,
452,15.9590292,452,15.07972813,
450,15.49823284,450,16.31649971,
448,15.64339447,448,15.92324543,
446,15.5797739,446,15.8399601,
444,15.33009529,444,14.71096611,
442,15.35612679,442,15.50456619,
440,16.67134857,440,16.17627144,
438,15.5598402,438,16.23015022,
436,17.28615761,436,16.16995621,
434,15.60725117,434,15.35268116,
432,15.71519852,432,15.78680611,
430,15.41885471,430,14.83603382,
428,15.82286644,428,16.34300613,
426,16.57772827,426,16.85794067,
424,14.97843075,424,14.64643955,
422,17.9784565,422,17.10697746,
420,17.18243599,420,16.52311516,
418,15.98117542,418,14.64697075,
416,15.07808113,416,16.04524612,
414,17.49385834,414,18.07730484,
412,15.78921795,412,17.96125412,
410,16.8647995,410,17.28475189,
408,18.9098053,408,18.00754166,
406,16.58316994,406,17.05538368,
404,17.01373672,404,15.57915211,
402,16.8327198,402,15.58176422,
400,17.98859978,400,19.72953033,
398,17.69961929,398,18.77684021,
396,17.68074417,396,17.28489685,
394,21.05751801,394,20.56652641,
392,17.89279556,392,18.38566399,
390,21.17778587,390,20.97130203,
388,18.59702492,388,18.14355087,
386,21.10687256,386,20.03106308,
384,20.12581444,384,21.13733673,
382,22.26244736,382,28.20002747,
380,25.45075035,380,21.6006794,
378,27.15769958,378,25.80468941,
376,23.91488647,376,23.5094738,
374,20.98182678,374,24.0737133,
372,29.00509834,372,27.09543037,
370,27.59561539,370,32.98112869,
368,36.99922562,368,38.15029144,
366,34.93805313,366,32.59952545,
364,31.45789719,364,33.35575867,
362,35.89720917,362,37.82672501,
360,42.21562576,360,43.98433304,
358,34.54867172,358,46.18613052,
356,42.47338867,356,50.06954575,
354,50.48307037,354,59.95638275,
352,51.81813812,352,52.1453743,
350,51.24197769,350,46.27788544,
348,68.12852478,348,55.3780899,
346,52.72649384,346,71.10024261,
344,62.50808716,344,72.15364838,
342,52.82676697,342,72.44380188,
340,95.29373932,340,116.0087128,
338,61.32351303,338,92.39162445,
336,76.98093414,336,76.84069824,
334,87.10971069,334,118.5163879,
332,105.6287994,332,113.3088455,
330,121.9604492,330,107.226738,
328,87.96704102,328,123.4276199,
326,112.7220535,326,79.55819702,
324,212.8336945,324,354.1861877,
322,80.15616608,322,128.6717834,
320,93.47146606,320,129.4479065,
318,213.37323,318,302.2167969,
316,99.8010025,316,30.4448719,
314,143.0312653,314,121.3787079,
312,145.8116608,312,92.29184723,
310,127.4004822,310,146.9964142,
308,68.69049835,308,71.93939972,
306,116.9200287,306,67.29761505,
304,172.5392151,304,137.427597,
302,168.561615,302,144.7015686,
300,454.5152283,300,327.6247864,

